54-78-23-0-0-0-0-0!47-91-21-0-0-0-0-0!56-157-14-0-0-0-0-0!61-178-15-0-0-0-0-0!70-178-18-0-0-0-0-0!73-181-15-0-0-0-0-0!71-180-18-0-0-0-0-0!82-170-19-0-0-0-0-0!81-152-20-0-0-0-0-0!77-137-19-0-0-0-0-0!81-139-19-0-0-0-0-0!83-133-16-0-0-0-0-0!74-133-18-0-0-0-0-0!64-125-19-0-0-0-0-0!59-126-19-0-0-0-0-0!59-124-19-0-0-0-0-0!67-118-18-0-0-0-0-0!67-121-15-0-0-0-0-0!66-124-15-0-0-0-0-0!57-121-18-0-0-0-0-0!50-114-18-0-0-0-0-0!53-111-18-0-0-0-0-0!50-118-19-0-0-0-0-0!53-110-19-0-0-0-0-0!53-95-24-0-0-0-0-0!58-84-31-0-0-0-0-0!56-74-53-0-0-0-0-0!54-75-31-0-1-0-0-0!50-65-32-0-1-0-0-0!49-59-22-0-1-0-0-0!50-60-22-0-1-0-0-0!49-62-23-0-1-0-0-0!51-65-23-0-1-0-0-0!49-71-25-0-1-0-0-0!48-79-48-0-1-0-0-0!50-79-132-0-1-0-0-0!47-71-64-0-0-0-0-0!44-76-51-0-0-0-0-0!44-73-34-0-0-0-0-0!43-78-31-0-0-0-0-0!44-79-28-0-0-0-0-0!46-90-25-0-0-0-0-0!49-82-27-0-0-0-0-0!53-84-27-0-0-0-0-0!53-83-34-0-0-0-0-0!57-86-28-0-0-0-0-0!64-88-30-0-0-0-0-0!66-93-21-0-0-0-0-0!69-93-22-0-0-0-0-0!68-93-24-0-0-0-0-0!59-85-23-0-0-0-0-0!50-80-23-0-0-0-0-0!47-68-20-0-0-0-0-0!50-58-23-0-0-0-0-0!50-59-27-0-0-0-0-0!55-80-20-0-0-0-0-0!51-115-28-0-0-0-0-0!51-139-66-0-0-0-0-0!54-135-78-0-0-0-0-0!73-178-95-0-0-1-0-0!64-168-48-0-0-1-0-0!64-180-61-0-0-1-0-0!63-189-37-0-0-1-0-0!57-190-50-0-0-1-0-0!62-184-43-0-0-1-0-0!68-178-36-0-0-1-0-0!67-168-64-0-0-1-0-0!75-175-95-0-0-1-0-0!85-186-51-0-0-0-0-0!94-174-53-0-0-0-0-0!79-167-41-0-0-0-0-0!76-155-45-0-0-0-0-0!81-144-58-0-0-0-0-0!325-138-58-0-0-0-1-0!137-114-37-0-0-0-1-0!99-93-38-0-0-0-1-0!77-86-23-0-0-0-1-0!73-66-32-0-0-0-1-0!69-64-24-0-0-0-1-0!70-61-33-0-0-0-1-0!66-60-28-0-0-0-1-0!62-64-30-0-0-0-1-0!58-73-26-0-0-0-1-0!57-81-28-0-0-0-1-0!65-96-213-0-0-0-1-0!68-92-231-0-0-0-1-0!65-81-127-0-0-0-0-0!59-79-102-0-0-0-0-0!57-77-66-0-0-0-0-0!55-69-54-0-0-0-0-0!53-66-71-0-0-0-0-0!46-63-43-0-0-0-0-0!52-66-55-0-0-0-0-0!57-66-54-0-0-0-0-0!63-64-43-0-0-0-0-0!67-71-45-0-0-0-0-0!86-80-91-0-0-0-0-1!76-82-95-0-0-0-0-1!72-81-52-0-0-0-0-1!73-77-42-0-0-0-0-1!66-86-47-0-0-0-0-1!78-92-92-0-0-0-0-1!67-93-152-0-0-0-0-1!61-77-86-0-0-0-0-0!59-68-59-0-0-0-0-0!60-76-63-0-0-0-0-0!62-77-40-0-0-0-0-0!69-78-54-0-0-0-0-0!74-77-49-0-0-0-0-0!68-81-41-0-0-0-0-0!64-92-51-0-0-0-0-0!60-98-50-0-0-0-0-0!62-105-43-0-0-0-0-0!69-125-61-0-0-0-0-0!75-148-111-1-0-0-0-0!73-134-93-1-0-0-0-0!72-112-73-1-0-0-0-0!80-112-73-1-0-0-0-0!77-104-64-1-0-0-0-0!74-109-102-1-0-0-0-0!65-115-69-0-0-0-0-0!64-106-51-0-0-0-0-0!59-98-56-0-0-0-0-0!59-104-43-0-0-0-0-0!59-108-40-0-0-0-0-0!59-118-70-0-0-0-0-0!68-125-68-1-0-0-0-0!67-132-77-1-0-0-0-0!60-113-61-1-0-0-0-0!57-104-59-1-0-0-0-0!56-97-56-1-0-0-0-0!54-100-46-1-0-0-0-0!49-99-44-1-0-0-0-0!49-100-67-1-0-0-0-0!51-91-36-0-0-0-0-0!48-77-37-0-0-0-0-0!48-79-35-0-0-0-0-0!51-75-47-0-0-0-0-0!52-79-38-0-0-0-0-0!51-90-31-0-0-0-0-0!45-93-43-0-0-0-0-0!48-87-45-0-0-0-0-0!63-111-82-1-0-0-0-0!74-115-80-1-0-0-0-0!70-102-75-1-0-0-0-0!66-94-53-1-0-0-0-0!59-90-56-1-0-0-0-0!56-92-57-1-0-0-0-0!57-98-68-1-0-0-0-0!55-92-60-1-0-0-0-0!59-88-53-0-0-0-0-0!55-76-48-0-0-0-0-0!59-70-42-0-0-0-0-0!66-69-47-0-0-0-0-0!73-70-37-0-0-0-0-0!72-94-47-0-1-0-0-0!71-86-42-0-1-0-0-0!80-74-51-0-1-0-0-0!82-68-35-0-1-0-0-0!79-64-51-0-1-0-0-0!78-70-161-0-1-0-0-0!60-68-63-0-0-0-0-0!50-64-53-0-0-0-0-0!51-72-51-0-0-0-0-0!57-88-57-0-0-0-0-0!75-105-35-0-1-0-0-0!80-89-42-0-1-0-0-0!82-78-33-0-1-0-0-0!72-73-29-0-1-0-0-0!72-69-66-0-1-0-0-0!79-68-159-0-1-0-0-0!62-60-81-0-0-0-0-0!59-56-50-0-0-0-0-0!58-57-54-0-0-0-0-0!58-60-54-0-0-0-0-0!57-58-55-0-0-0-0-0!75-93-43-0-1-0-0-0!75-84-31-0-1-0-0-0!77-65-28-0-1-0-0-0!67-66-41-0-1-0-0-0!74-68-33-0-1-0-0-0!73-73-144-0-1-0-0-0!55-73-117-0-0-0-0-0!49-67-80-0-0-0-0-0!49-67-67-0-0-0-0-0!50-72-48-0-0-0-0-0!63-110-41-0-1-0-0-0!69-91-39-0-1-0-0-0!72-72-33-0-1-0-0-0!68-65-27-0-1-0-0-0!65-66-34-0-1-0-0-0!66-64-166-0-1-0-0-0!56-61-143-0-0-0-0-0!50-61-87-0-0-0-0-0!48-59-58-0-0-0-0-0!49-70-39-0-0-0-0-0!62-82-34-0-1-0-0-0!60-71-33-0-1-0-0-0!65-66-32-0-1-0-0-0!63-67-57-0-1-0-0-0!61-74-175-0-0-0-0-0!49-67-70-0-0-0-0-0!51-63-144-0-0-0-0-0!59-113-92-0-0-0-0-0!85-142-99-0-0-1-0-0!74-110-87-0-0-1-0-0!68-82-109-0-0-1-0-0!69-67-103-0-0-1-0-0!72-71-113-0-0-0-0-0!56-76-92-0-0-0-0-0!50-79-73-0-0-0-0-0!124-244-108-0-0-1-0-0!89-140-109-0-0-1-0-0!69-84-84-0-0-1-0-0!67-71-87-0-0-1-0-0!62-70-140-0-0-0-0-0!57-90-117-0-0-0-0-0!52-96-105-0-0-0-0-0!60-100-102-0-0-0-0-0!88-148-106-0-0-1-0-0!75-102-112-0-0-1-0-0!64-85-109-0-0-1-0-0!69-86-84-0-0-1-0-0!64-95-70-0-0-1-0-0!63-92-81-0-0-1-0-0!68-92-60-0-0-1-0-0!73-103-80-0-0-1-0-0!60-103-58-0-0-1-0-0!63-106-66-0-0-1-0-0!59-105-77-0-0-1-0-0!65-101-65-0-0-1-0-0!65-101-115-0-0-1-0-0!64-104-74-0-0-1-0-0!63-96-91-0-0-1-0-0!55-98-69-0-0-1-0-0!57-97-71-0-0-1-0-0!60-89-70-0-0-1-0-0!55-86-64-0-0-1-0-0!54-80-86-0-0-1-0-0!56-72-76-0-0-1-0-0!57-69-65-0-0-1-0-0!55-66-72-0-0-1-0-0!54-71-72-0-0-1-0-0!56-69-63-0-0-1-0-0!54-65-75-0-0-1-0-0!55-62-54-0-0-1-0-0!55-69-65-0-0-1-0-0!51-64-71-0-0-1-0-0!52-70-48-0-0-1-0-0!56-78-57-0-0-1-0-0!51-73-55-0-0-1-0-0!63-70-116-0-0-1-0-0!80-78-131-0-0-0-0-0!57-65-64-0-0-0-0-0!51-62-69-0-0-0-0-0!54-61-86-0-0-0-0-0!53-69-52-0-0-0-0-0!55-69-55-0-0-0-0-0!54-68-74-0-0-0-0-0!59-74-47-0-0-0-0-0!60-80-35-0-0-0-0-0!75-79-64-0-0-0-0-0!98-88-91-0-0-0-0-0!219-120-89-0-0-0-1-0!207-121-65-0-0-0-1-0!150-108-64-0-0-0-1-0!109-97-70-0-0-0-1-0!76-88-48-0-0-0-1-0!75-89-48-0-0-0-1-0!85-91-52-0-0-0-1-0!68-86-44-0-0-0-1-0!73-82-47-0-0-0-1-0!73-72-50-0-0-0-1-0!64-66-51-0-0-0-1-0!66-68-48-0-0-0-1-0!72-74-57-0-0-0-1-0!74-70-44-0-0-0-1-0!73-71-39-0-0-0-1-0!65-70-53-0-0-0-1-0!79-73-56-0-0-0-1-0!77-73-51-0-0-0-1-0!81-76-55-0-0-0-1-0!76-72-45-0-0-0-1-0!69-71-47-0-0-0-1-0!79-76-55-0-0-0-1-0!81-88-51-0-0-0-1-0!72-77-50-0-0-0-1-0!71-76-50-0-0-0-1-0!71-78-41-0-0-0-1-0!80-73-63-0-0-0-1-0!73-81-60-0-0-0-1-0!61-84-175-0-0-0-1-0!74-91-347-0-0-0-1-0!64-79-210-0-0-0-1-0!57-78-116-0-0-0-0-0!57-82-71-0-0-0-0-0!57-75-73-0-0-0-0-0!56-70-55-0-0-0-0-0!61-71-46-0-0-0-0-0!61-75-48-0-0-0-0-0!62-75-53-0-0-0-0-0!60-80-55-0-0-0-0-0!73-95-68-0-0-0-0-0!92-83-78-0-0-0-0-1!86-92-67-0-0-0-0-1!86-78-59-0-0-0-0-1!79-75-51-0-0-0-0-1!81-86-50-0-0-0-0-1!67-75-57-0-0-0-0-1!63-80-61-0-0-0-0-1!57-73-40-0-0-0-0-1!62-75-43-0-0-0-0-1!56-77-43-0-0-0-0-1!61-80-48-0-0-0-0-1!61-81-45-0-0-0-0-1!56-75-53-0-0-0-0-1!56-68-49-0-0-0-0-1!62-76-70-0-0-0-0-1!68-87-138-0-0-0-0-1!56-74-70-0-0-0-0-0!54-82-56-0-0-0-0-0!55-79-50-0-0-0-0-0!59-73-54-0-0-0-0-0!58-80-48-0-0-0-0-0!76-84-55-0-0-0-0-1!66-82-66-0-0-0-0-1!66-92-52-0-0-0-0-1!57-100-41-0-0-0-0-1!64-112-46-0-0-0-0-1!62-108-49-0-0-0-0-1!63-114-54-0-0-0-0-1!64-134-48-0-0-0-0-1!63-128-49-0-0-0-0-1!61-123-45-0-0-0-0-1!63-128-45-0-0-0-0-1!64-125-164-0-0-0-0-1!64-126-122-0-0-0-0-1!58-132-67-0-0-0-0-0!55-124-72-0-0-0-0-0!58-111-48-0-0-0-0-0!56-105-63-0-0-0-0-0!55-103-49-0-0-0-0-0!55-102-57-0-0-0-0-0!54-92-53-0-0-0-0-0!52-86-51-0-0-0-0-0!50-79-43-0-0-0-0-0!53-73-40-0-0-0-0-0!55-67-37-0-0-0-0-0!54-72-50-0-0-0-0-0!56-84-52-0-0-0-0-0!56-80-45-0-0-0-0-0!59-81-49-0-0-0-0-0!74-83-56-0-0-0-0-1!81-83-65-0-0-0-0-1!77-81-57-0-0-0-0-1!77-77-61-0-0-0-0-1!69-84-52-0-0-0-0-1!62-88-47-0-0-0-0-1!63-84-50-0-0-0-0-1!65-88-45-0-0-0-0-1!68-85-98-0-0-0-0-1!56-86-106-0-0-0-0-1!57-80-51-0-0-0-0-0!60-80-60-0-0-0-0-0!68-74-45-0-0-0-0-0!68-79-54-0-0-0-0-0!63-85-39-0-0-0-0-0!67-82-58-0-0-0-0-0!69-80-55-0-0-0-0-0!84-76-64-0-0-0-0-0!85-75-73-0-0-0-0-1!77-77-68-0-0-0-0-1!84-87-67-0-0-0-0-1!75-88-73-0-0-0-0-1!62-86-83-0-0-0-0-1!63-84-54-0-0-0-0-1!57-78-49-0-0-0-0-0!57-83-60-0-0-0-0-0!55-76-55-0-0-0-0-0!58-74-58-0-0-0-0-0!61-83-47-0-0-0-0-0!59-81-69-0-0-0-0-0!56-74-64-0-0-0-0-0!53-84-64-0-0-0-0-0!198-133-78-0-0-0-0-0!266-211-98-0-0-1-1-0!116-146-115-0-0-1-1-0!98-115-112-0-0-1-1-0!82-92-83-0-0-1-1-0!77-108-77-0-0-1-1-0!69-105-60-0-0-1-1-0!64-108-54-0-0-1-1-0!76-93-64-0-0-1-1-0!79-103-60-0-0-1-1-0!67-96-53-0-0-1-1-0!68-104-215-0-0-1-0-0!64-109-148-0-0-0-0-0!62-117-108-0-0-0-0-0!61-108-59-0-0-0-0-0!54-99-44-0-0-0-0-0!63-104-57-0-0-0-0-0!56-104-61-0-0-0-0-0!65-102-42-0-0-0-0-0!64-99-45-0-0-0-0-0!60-96-47-0-0-0-0-0!55-90-54-0-0-0-0-0!56-93-43-0-0-0-0-0!57-87-46-0-0-0-0-0!55-81-53-0-0-0-0-0!56-83-48-0-1-0-0-0!76-106-53-0-1-0-0-0!73-112-59-0-1-0-0-0!70-116-38-0-1-0-0-0!66-109-49-0-1-0-0-0!60-114-51-0-1-0-0-0!62-96-135-0-1-0-0-0!57-94-89-0-1-0-0-0!59-102-61-0-0-0-0-0!63-109-61-0-0-0-0-0!66-116-60-0-0-0-0-0!60-113-55-0-0-0-0-0!59-119-47-0-0-0-0-0!56-119-49-0-0-0-0-0!65-107-80-0-0-0-0-0!74-117-104-1-1-0-0-0!70-109-72-1-1-0-0-0!69-107-74-1-1-0-0-0!64-99-80-1-1-0-0-0!59-94-58-1-1-0-0-0!59-87-53-1-1-0-0-0!57-88-45-1-1-0-0-0!57-89-59-1-1-0-0-0!66-116-131-1-1-0-0-0!62-89-79-0-0-0-0-0!58-79-73-0-0-0-0-0!60-76-72-0-0-0-0-0!57-81-55-0-0-0-0-0!55-87-52-0-0-0-0-0!54-89-49-0-0-0-0-0!55-78-49-0-0-0-0-0!55-87-60-0-0-0-0-0!53-96-56-0-0-0-0-0!60-88-74-0-0-0-0-0!58-80-52-0-0-0-0-0!102-84-59-0-0-0-0-0!164-166-56-0-0-1-1-0!86-127-65-0-0-1-1-0!86-124-66-0-0-1-1-0!75-120-49-0-0-1-1-0!65-105-47-0-0-1-1-0!67-109-58-0-0-1-1-0!62-99-48-0-0-1-1-0!63-97-61-0-0-1-1-0!72-107-221-0-0-1-1-0!59-89-200-0-0-0-0-0!53-77-99-0-0-0-0-0!48-83-71-0-0-0-0-0!50-86-50-0-0-0-0-0!51-81-46-0-0-0-0-0!51-82-46-0-0-0-0-0!58-79-56-0-0-0-0-0!68-74-50-0-0-0-0-0!67-82-55-0-0-0-0-0!70-75-48-0-0-0-0-0!67-68-55-0-0-0-0-0!61-65-43-0-0-0-0-0!65-70-46-0-0-0-0-0!64-76-54-0-0-0-0-0!86-84-49-0-0-0-0-1!87-85-84-0-0-0-0-1!73-88-72-0-0-0-0-1!69-85-56-0-0-0-0-1!61-82-53-0-0-0-0-1!63-85-39-0-0-0-0-1!60-86-57-0-0-0-0-1!60-85-45-0-0-0-0-1!56-86-42-0-0-0-0-1!53-94-52-0-0-0-0-1!59-80-48-0-0-0-0-1!63-92-47-0-0-0-0-1!70-87-51-0-0-0-0-1!67-98-43-0-0-0-0-1!63-105-44-0-0-0-0-1!58-105-54-0-0-0-0-1!62-119-129-0-0-0-0-1!53-114-82-0-0-0-0-0!54-122-82-0-0-0-0-0!52-131-53-0-0-0-0-0!
72-61-97-0-0-0-0-0!76-60-51-0-0-0-0-0!65-60-60-0-0-0-0-0!48-57-42-0-0-0-0-0!49-54-32-0-0-0-0-0!51-57-44-0-0-0-0-0!47-64-41-0-0-0-0-0!45-74-54-0-0-0-0-0!48-80-37-0-0-0-0-0!52-91-42-0-0-0-0-0!60-106-42-0-0-0-0-0!71-118-38-0-0-0-0-0!77-135-40-0-0-0-0-0!82-129-62-0-1-0-0-0!89-131-32-0-1-0-0-0!79-143-38-0-1-0-0-0!69-149-35-0-1-0-0-0!72-152-47-0-1-0-0-0!73-148-34-0-1-0-0-0!74-143-25-0-1-0-0-0!75-129-30-0-1-0-0-0!70-124-33-0-1-0-0-0!71-111-204-0-1-0-0-0!78-108-119-0-0-0-0-0!77-110-72-0-0-0-0-0!73-94-68-0-0-0-0-0!69-112-96-0-0-0-0-0!128-319-103-0-0-0-0-0!71-142-99-0-1-0-0-0!61-89-67-0-1-0-0-0!62-81-57-0-1-0-0-0!58-84-63-0-1-0-0-0!55-84-50-0-1-0-0-0!65-85-49-0-1-0-0-0!54-84-59-0-0-0-0-0!57-95-62-0-0-0-0-0!50-112-45-0-0-0-0-0!55-140-46-0-0-0-0-0!66-140-43-0-0-0-0-0!70-134-42-0-0-0-0-0!68-124-53-0-0-0-0-0!56-123-42-0-0-0-0-0!56-117-39-0-0-0-0-0!60-116-71-0-0-0-0-0!62-104-60-0-0-0-0-0!94-180-80-0-0-1-0-0!82-140-95-0-0-1-0-0!88-135-87-0-0-1-0-0!94-133-88-0-0-1-0-0!86-138-76-0-0-1-0-0!83-144-60-0-0-1-0-0!89-147-52-0-0-1-0-0!84-159-69-0-0-1-0-0!106-151-135-0-0-1-0-0!86-140-92-0-0-0-0-0!75-141-61-0-0-0-0-0!76-129-50-0-0-0-0-0!92-126-33-0-0-0-0-0!326-130-35-0-0-0-0-0!231-119-42-0-0-0-1-0!158-90-29-0-0-0-1-0!109-89-29-0-0-0-1-0!93-90-25-0-0-0-1-0!91-95-34-0-0-0-1-0!92-89-29-0-0-0-1-0!78-88-29-0-0-0-1-0!74-94-33-0-0-0-1-0!84-109-181-0-0-0-1-0!68-94-224-0-0-0-1-0!58-100-112-0-0-0-0-0!63-100-93-0-0-0-0-0!108-100-61-0-0-0-0-1!93-104-68-0-0-0-0-1!84-103-59-0-0-0-0-1!83-99-44-0-0-0-0-1!77-99-34-0-0-0-0-1!77-98-35-0-0-0-0-1!78-108-108-0-0-0-0-1!73-122-123-0-0-0-0-1!72-102-94-0-0-0-0-0!74-89-56-0-0-0-0-0!69-92-42-0-0-0-0-0!73-99-51-0-0-0-0-0!387-236-73-0-0-1-1-0!206-174-59-0-0-1-1-0!113-130-40-0-0-1-1-0!96-112-37-0-0-1-1-0!79-113-47-0-0-1-1-0!70-110-38-0-0-1-1-0!67-123-32-0-0-1-1-0!72-126-28-0-0-1-1-0!79-98-27-0-0-1-1-0!68-114-26-0-0-1-1-0!61-119-25-0-0-1-1-0!62-136-32-0-0-1-1-0!74-148-133-0-0-1-1-0!70-142-122-0-0-1-0-0!73-128-131-0-0-1-0-0!65-138-107-0-0-1-0-0!77-148-114-0-0-1-0-0!68-157-95-0-0-1-0-0!67-129-85-0-0-1-0-0!67-116-53-0-0-1-0-0!66-118-48-0-0-1-0-0!353-185-75-0-0-1-1-0!184-139-57-0-0-1-1-0!123-128-44-0-0-1-1-0!80-114-39-0-0-1-1-0!75-124-27-0-0-1-1-0!63-122-39-0-0-1-1-0!83-160-226-0-0-1-1-0!72-133-142-0-0-1-1-0!71-128-107-0-0-1-0-0!68-129-113-0-0-1-0-0!60-133-91-0-0-1-0-0!69-164-91-0-0-1-0-0!73-153-64-0-0-1-0-0!195-140-46-0-0-1-0-0!284-144-57-0-0-1-1-0!123-136-54-0-0-1-1-0!87-118-40-0-0-1-1-0!76-114-52-0-0-1-1-0!70-116-42-0-0-1-1-0!89-133-47-0-0-1-1-0!102-161-381-0-0-1-1-0!79-146-191-0-0-1-0-0!83-161-200-0-0-1-0-0!79-169-107-0-0-1-0-0!71-140-89-0-0-1-0-0!77-149-77-0-0-1-0-0!66-140-68-0-0-1-0-0!71-131-72-0-0-1-0-0!70-154-64-0-0-1-0-0!83-129-232-0-0-0-0-0!72-114-106-0-0-0-0-0!68-125-79-0-0-0-0-0!56-114-65-0-0-0-0-0!75-151-58-0-0-0-0-0!67-125-48-0-0-0-0-0!75-135-63-0-0-0-0-0!77-138-69-0-0-0-0-0!78-123-48-0-0-0-0-0!126-133-75-0-0-0-0-0!245-213-73-0-0-1-1-0!130-150-67-0-0-1-1-0!96-151-44-0-0-1-1-0!96-134-44-0-0-1-1-0!148-140-140-0-0-1-1-0!137-136-108-0-0-0-1-0!108-138-73-0-0-0-1-0!89-130-58-0-0-0-1-0!85-146-79-0-0-0-1-0!114-227-68-0-0-1-1-0!92-190-52-0-0-1-1-0!77-169-55-0-0-1-1-0!79-142-48-0-0-1-1-0!82-133-39-0-0-1-1-0!75-119-40-0-0-1-1-0!66-124-49-0-0-1-1-0!80-120-42-0-0-1-1-0!80-109-50-0-0-1-1-0!88-138-54-0-0-1-1-0!102-159-368-0-0-1-0-0!68-94-181-0-0-0-0-0!65-121-111-0-0-0-0-0!61-106-86-0-0-0-0-0!70-123-61-0-0-0-0-0!73-124-62-0-0-0-0-0!70-152-60-0-0-0-0-0!63-127-56-0-0-0-0-0!64-125-82-0-0-0-0-0!70-130-57-0-0-0-0-0!62-127-61-0-0-0-0-0!57-129-51-0-0-0-0-0!69-134-59-0-0-0-0-0!64-120-66-0-0-0-0-0!84-166-135-1-0-0-0-0!94-175-123-1-0-0-0-0!90-176-101-1-0-0-0-0!91-156-82-1-0-0-0-0!80-168-94-1-0-0-0-0!75-128-62-1-0-0-0-0!74-139-73-1-0-0-0-0!78-146-59-1-0-0-0-0!71-117-48-1-0-0-0-0!72-123-59-1-0-0-0-0!62-134-63-1-0-0-0-0!65-114-71-1-0-0-0-0!73-145-63-1-0-0-0-0!78-194-64-1-0-0-0-0!71-153-57-0-0-0-0-0!65-143-61-0-0-0-0-0!66-124-63-0-0-0-0-0!62-116-63-0-0-0-0-0!63-109-49-0-0-0-0-0!75-151-67-0-0-0-0-0!80-146-75-1-0-0-0-0!75-150-68-1-0-0-0-0!82-173-62-1-0-0-0-0!82-175-75-1-0-0-0-0!80-146-58-1-0-0-0-0!80-147-50-1-0-0-0-0!80-151-89-1-0-0-0-0!80-151-62-1-0-0-0-0!71-138-64-0-0-0-0-0!63-133-45-0-0-0-0-0!69-118-59-0-0-0-0-0!86-149-74-1-0-0-0-0!93-154-70-1-0-0-0-0!81-139-68-1-0-0-0-0!73-125-42-1-0-0-0-0!74-146-54-1-0-0-0-0!73-129-82-1-0-0-0-0!73-131-79-0-0-0-0-0!76-148-59-0-0-0-0-0!74-112-48-0-0-0-0-0!72-94-57-0-0-0-0-0!77-105-74-1-0-0-0-0!73-124-59-1-0-0-0-0!73-116-59-1-0-0-0-0!77-119-59-1-0-0-0-0!78-109-53-1-0-0-0-0!75-136-69-1-0-0-0-0!71-120-60-0-0-0-0-0!70-118-59-0-0-0-0-0!70-128-49-0-0-0-0-0!64-113-67-0-0-0-0-0!80-160-54-0-0-1-0-0!80-141-44-0-0-1-0-0!73-132-55-0-0-1-0-0!76-152-53-0-0-1-0-0!72-123-40-0-0-1-0-0!74-117-52-0-0-1-0-0!71-130-47-0-0-1-0-0!71-135-51-0-0-1-0-0!67-128-46-0-0-1-0-0!67-108-55-0-0-1-0-0!67-113-50-0-0-1-0-0!67-116-48-0-0-1-0-0!65-127-52-0-0-1-0-0!73-118-68-0-0-1-0-0!79-121-54-0-0-1-0-0!78-134-56-0-0-1-0-0!78-125-60-0-0-1-0-0!85-144-88-0-0-1-0-0!77-129-132-0-0-0-0-0!72-111-131-0-0-0-0-0!66-135-80-0-0-0-0-0!66-123-79-0-0-0-0-0!67-115-58-0-0-0-0-0!75-127-59-0-0-0-0-0!70-123-54-0-0-0-0-0!76-124-41-0-0-0-0-0!66-91-42-0-0-0-0-0!68-107-35-0-0-0-0-0!69-111-49-0-0-0-0-0!70-129-62-0-0-0-0-0!67-117-48-0-0-0-0-0!66-129-63-0-0-0-0-0!67-128-73-0-0-0-0-0!69-130-65-0-0-0-0-0!76-147-56-0-0-0-0-0!67-146-50-0-0-0-0-0!59-135-52-0-0-0-0-0!63-131-54-0-0-0-0-0!61-123-66-0-0-0-0-0!67-147-44-0-0-0-0-0!61-143-55-0-0-0-0-0!68-132-43-0-0-0-0-0!63-123-49-0-0-0-0-0!60-135-61-0-0-0-0-0!63-101-52-0-0-0-0-0!63-124-39-0-0-0-0-0!55-79-36-0-0-0-0-0!60-81-40-0-0-0-0-0!61-97-47-0-0-0-0-0!58-100-39-0-0-0-0-0!
